freq,psd_x,psd_y,psd_z,psd_xyz
0.0,6.264e+02,9.822e+00,2.290e+01,6.591e+02
1.5,4.143e+02,2.541e+01,6.137e+01,5.011e+02
3.1,1.237e+02,2.761e+01,6.283e+01,2.141e+02
4.6,4.290e+02,3.102e+01,6.236e+01,5.224e+02
6.2,1.265e+03,2.988e+01,6.484e+01,1.360e+03
7.7,2.005e+03,2.874e+01,6.316e+01,2.096e+03
9.3,2.915e+03,2.709e+01,6.274e+01,3.004e+03
10.8,4.049e+03,3.196e+01,6.527e+01,4.146e+03
12.3,5.332e+03,4.110e+01,6.645e+01,5.440e+03
13.9,6.552e+03,5.910e+01,6.200e+01,6.673e+03
15.4,8.068e+03,8.217e+01,6.531e+01,8.215e+03
17.0,9.654e+03,8.772e+01,6.240e+01,9.804e+03
18.5,1.111e+04,5.650e+01,6.039e+01,1.123e+04
20.1,1.322e+04,4.135e+01,5.817e+01,1.332e+04
21.6,1.591e+04,3.647e+01,5.813e+01,1.600e+04
23.1,1.868e+04,3.636e+01,6.371e+01,1.878e+04
24.7,2.171e+04,4.432e+01,7.105e+01,2.182e+04
26.2,2.519e+04,4.708e+01,6.898e+01,2.530e+04
27.8,2.909e+04,5.009e+01,7.158e+01,2.921e+04
29.3,3.377e+04,5.927e+01,7.318e+01,3.390e+04
30.9,3.956e+04,6.322e+01,7.840e+01,3.971e+04
32.4,4.446e+04,6.413e+01,7.589e+01,4.460e+04
33.9,4.941e+04,5.352e+01,8.065e+01,4.955e+04
35.5,5.621e+04,5.428e+01,8.660e+01,5.635e+04
37.0,6.519e+04,4.966e+01,1.038e+02,6.534e+04
38.6,7.657e+04,4.600e+01,1.446e+02,7.676e+04
40.1,8.901e+04,4.358e+01,2.934e+02,8.935e+04
41.6,1.022e+05,4.153e+01,5.569e+02,1.028e+05
43.2,1.129e+05,6.081e+01,7.296e+02,1.136e+05
44.7,1.232e+05,8.892e+01,8.082e+02,1.241e+05
46.3,1.388e+05,1.052e+02,8.017e+02,1.397e+05
47.8,1.527e+05,1.321e+02,8.699e+02,1.537e+05
49.4,1.639e+05,1.799e+02,1.248e+03,1.653e+05
50.9,1.759e+05,3.240e+02,2.061e+03,1.783e+05
52.4,1.933e+05,7.045e+02,3.567e+03,1.976e+05
54.0,2.130e+05,1.190e+03,5.812e+03,2.200e+05
55.5,2.258e+05,1.003e+03,5.656e+03,2.324e+05
57.1,2.282e+05,7.500e+02,4.060e+03,2.330e+05
58.6,2.475e+05,1.144e+03,4.903e+03,2.535e+05
60.2,2.919e+05,1.829e+03,7.547e+03,3.012e+05
61.7,3.465e+05,2.639e+03,1.103e+04,3.602e+05
63.2,4.115e+05,3.435e+03,1.368e+04,4.286e+05
64.8,4.896e+05,4.775e+03,1.495e+04,5.093e+05
66.3,5.388e+05,6.013e+03,2.081e+04,5.656e+05
67.9,5.508e+05,7.099e+03,3.261e+04,5.905e+05
69.4,5.630e+05,9.838e+03,5.079e+04,6.237e+05
71.0,5.884e+05,1.358e+04,6.907e+04,6.710e+05
72.5,6.113e+05,1.582e+04,7.815e+04,7.052e+05
74.0,5.953e+05,1.501e+04,7.189e+04,6.822e+05
75.6,5.467e+05,1.334e+04,6.011e+04,6.202e+05
77.1,4.857e+05,1.203e+04,4.564e+04,5.434e+05
78.7,4.380e+05,1.127e+04,3.428e+04,4.836e+05
80.2,4.126e+05,1.128e+04,2.697e+04,4.508e+05
81.8,4.211e+05,1.271e+04,2.486e+04,4.587e+05
83.3,4.644e+05,1.266e+04,2.041e+04,4.975e+05
84.8,5.605e+05,1.230e+04,1.710e+04,5.899e+05
86.4,6.905e+05,1.292e+04,1.736e+04,7.208e+05
87.9,9.113e+05,1.188e+04,1.600e+04,9.392e+05
89.5,1.247e+06,9.438e+03,1.412e+04,1.271e+06
91.0,1.695e+06,7.785e+03,1.446e+04,1.718e+06
92.6,2.243e+06,8.824e+03,1.743e+04,2.269e+06
94.1,2.595e+06,7.189e+03,1.553e+04,2.617e+06
95.6,2.793e+06,6.680e+03,1.248e+04,2.812e+06
97.2,3.102e+06,7.794e+03,1.255e+04,3.122e+06
98.7,3.202e+06,7.690e+03,1.152e+04,3.221e+06
100.3,2.949e+06,8.433e+03,9.187e+03,2.967e+06
101.8,2.689e+06,1.362e+04,9.927e+03,2.713e+06
103.3,2.424e+06,1.960e+04,1.217e+04,2.456e+06
104.9,1.952e+06,2.259e+04,1.264e+04,1.987e+06
106.4,1.696e+06,2.418e+04,1.283e+04,1.733e+06
108.0,1.562e+06,2.431e+04,1.251e+04,1.598e+06
109.5,1.504e+06,2.249e+04,1.231e+04,1.538e+06
111.1,1.502e+06,1.799e+04,1.073e+04,1.531e+06
112.6,1.471e+06,1.244e+04,7.703e+03,1.491e+06
114.1,1.413e+06,7.395e+03,4.563e+03,1.425e+06
115.7,1.263e+06,3.754e+03,2.558e+03,1.269e+06
117.2,1.011e+06,1.482e+03,1.829e+03,1.015e+06
118.8,9.722e+05,4.951e+03,4.786e+03,9.820e+05
120.3,1.007e+06,9.826e+03,6.447e+03,1.024e+06
121.9,8.737e+05,1.220e+04,5.415e+03,8.914e+05
123.4,8.155e+05,1.319e+04,4.624e+03,8.333e+05
124.9,8.868e+05,9.223e+03,2.807e+03,8.988e+05
126.5,9.234e+05,6.501e+03,2.283e+03,9.322e+05
128.0,8.967e+05,5.402e+03,2.779e+03,9.049e+05
129.6,8.556e+05,7.206e+03,3.411e+03,8.662e+05
131.1,7.471e+05,9.451e+03,3.241e+03,7.598e+05
132.7,3.416e+05,5.386e+03,1.472e+03,3.484e+05
134.2,3.866e+04,6.345e+02,3.106e+02,3.961e+04
135.7,1.649e+04,3.295e+02,2.726e+02,1.710e+04
137.3,1.432e+04,3.577e+02,2.964e+02,1.497e+04
138.8,1.296e+04,3.758e+02,2.957e+02,1.363e+04
140.4,1.220e+04,3.409e+02,2.616e+02,1.280e+04
141.9,1.254e+04,2.796e+02,1.972e+02,1.301e+04
143.5,1.361e+04,3.996e+02,2.169e+02,1.422e+04
145.0,1.372e+04,4.912e+02,2.607e+02,1.447e+04
146.5,1.443e+04,5.824e+02,2.979e+02,1.531e+04
148.1,1.627e+04,7.169e+02,3.804e+02,1.736e+04
149.6,1.973e+04,9.331e+02,4.879e+02,2.115e+04
151.2,2.008e+04,9.820e+02,4.686e+02,2.153e+04
152.7,1.816e+04,9.136e+02,3.662e+02,1.944e+04
154.3,1.594e+04,9.233e+02,2.704e+02,1.714e+04
155.8,1.414e+04,9.765e+02,2.101e+02,1.533e+04
157.3,1.272e+04,9.962e+02,1.752e+02,1.389e+04
158.9,1.078e+04,1.056e+03,1.519e+02,1.199e+04
160.4,9.388e+03,1.122e+03,1.534e+02,1.066e+04
162.0,8.599e+03,1.110e+03,1.759e+02,9.884e+03
163.5,8.140e+03,9.556e+02,2.162e+02,9.312e+03
165.1,8.360e+03,7.982e+02,2.557e+02,9.413e+03
166.6,8.986e+03,7.472e+02,2.497e+02,9.983e+03
168.1,1.018e+04,7.604e+02,2.517e+02,1.119e+04
169.7,1.157e+04,7.283e+02,2.590e+02,1.256e+04
171.2,1.546e+04,7.803e+02,2.420e+02,1.648e+04
172.8,2.024e+04,1.069e+03,3.206e+02,2.163e+04
174.3,2.177e+04,1.184e+03,4.144e+02,2.337e+04
175.8,2.277e+04,1.121e+03,4.587e+02,2.435e+04
177.4,2.438e+04,1.113e+03,5.379e+02,2.603e+04
178.9,2.630e+04,1.099e+03,6.435e+02,2.805e+04
180.5,2.836e+04,1.032e+03,6.403e+02,3.003e+04
182.0,3.249e+04,1.083e+03,6.676e+02,3.424e+04
183.6,4.116e+04,1.262e+03,7.623e+02,4.319e+04
185.1,4.666e+04,1.425e+03,8.655e+02,4.895e+04
186.6,4.311e+04,1.496e+03,7.095e+02,4.531e+04
188.2,3.940e+04,1.009e+03,3.755e+02,4.078e+04
189.7,4.167e+04,7.364e+02,3.290e+02,4.273e+04
191.3,4.314e+04,8.988e+02,3.988e+02,4.443e+04
192.8,3.966e+04,9.655e+02,3.919e+02,4.102e+04
194.4,3.342e+04,8.992e+02,3.482e+02,3.466e+04
195.9,2.791e+04,8.603e+02,3.429e+02,2.911e+04
197.4,2.338e+04,8.870e+02,3.688e+02,2.464e+04
199.0,1.963e+04,1.093e+03,4.278e+02,2.116e+04
