freq,psd_x,psd_y,psd_z,psd_xyz
0.0,3.328e+02,6.377e+00,1.379e+01,3.529e+02
1.5,2.074e+02,2.090e+01,5.835e+01,2.866e+02
3.1,4.108e+01,2.365e+01,6.533e+01,1.301e+02
4.6,3.558e+02,2.157e+01,6.280e+01,4.401e+02
6.2,1.256e+03,2.148e+01,6.196e+01,1.340e+03
7.7,2.054e+03,2.182e+01,6.611e+01,2.142e+03
9.3,2.954e+03,2.229e+01,5.802e+01,3.035e+03
10.8,4.083e+03,2.624e+01,6.462e+01,4.174e+03
12.3,5.018e+03,4.221e+01,6.547e+01,5.126e+03
13.9,5.891e+03,5.337e+01,5.646e+01,6.001e+03
15.4,6.891e+03,4.726e+01,6.033e+01,6.999e+03
17.0,8.161e+03,2.818e+01,6.810e+01,8.257e+03
18.5,9.999e+03,2.501e+01,6.947e+01,1.009e+04
20.1,1.260e+04,2.579e+01,6.631e+01,1.270e+04
21.6,1.515e+04,2.605e+01,6.460e+01,1.524e+04
23.1,1.734e+04,2.661e+01,6.022e+01,1.742e+04
24.7,1.994e+04,2.669e+01,6.592e+01,2.003e+04
26.2,2.273e+04,2.935e+01,6.654e+01,2.283e+04
27.8,2.562e+04,3.208e+01,6.489e+01,2.571e+04
29.3,2.886e+04,3.629e+01,6.830e+01,2.896e+04
30.9,3.290e+04,3.550e+01,6.978e+01,3.301e+04
32.4,3.728e+04,3.788e+01,7.060e+01,3.739e+04
33.9,4.123e+04,4.238e+01,7.286e+01,4.135e+04
35.5,4.724e+04,4.029e+01,8.304e+01,4.736e+04
37.0,5.571e+04,3.934e+01,9.352e+01,5.584e+04
38.6,6.371e+04,4.225e+01,1.141e+02,6.387e+04
40.1,7.209e+04,4.810e+01,1.396e+02,7.228e+04
41.7,8.569e+04,5.558e+01,2.079e+02,8.596e+04
43.2,9.991e+04,6.628e+01,2.889e+02,1.003e+05
44.7,1.162e+05,9.989e+01,4.113e+02,1.168e+05
46.3,1.408e+05,1.565e+02,6.360e+02,1.416e+05
47.8,1.711e+05,2.878e+02,1.012e+03,1.724e+05
49.4,2.042e+05,5.403e+02,1.901e+03,2.067e+05
50.9,2.446e+05,9.333e+02,3.456e+03,2.489e+05
52.5,3.155e+05,1.367e+03,5.010e+03,3.218e+05
54.0,4.391e+05,1.752e+03,6.172e+03,4.471e+05
55.5,6.005e+05,2.085e+03,6.864e+03,6.094e+05
57.1,8.056e+05,2.190e+03,7.427e+03,8.152e+05
58.6,1.052e+06,2.198e+03,8.070e+03,1.062e+06
60.2,1.227e+06,2.355e+03,8.027e+03,1.237e+06
61.7,1.177e+06,1.739e+03,9.815e+03,1.189e+06
63.3,9.557e+05,1.020e+03,1.138e+04,9.681e+05
64.8,6.766e+05,7.180e+02,8.872e+03,6.862e+05
66.3,4.454e+05,6.484e+02,5.511e+03,4.516e+05
67.9,2.999e+05,6.869e+02,3.372e+03,3.039e+05
69.4,2.428e+05,1.138e+03,1.957e+03,2.458e+05
71.0,2.170e+05,2.246e+03,1.529e+03,2.207e+05
72.5,1.987e+05,3.494e+03,2.444e+03,2.046e+05
74.1,1.805e+05,3.945e+03,3.141e+03,1.876e+05
75.6,1.697e+05,4.286e+03,3.650e+03,1.776e+05
77.1,1.603e+05,4.904e+03,4.746e+03,1.700e+05
78.7,1.483e+05,5.163e+03,5.808e+03,1.593e+05
80.2,1.324e+05,4.865e+03,6.167e+03,1.434e+05
81.8,1.088e+05,4.005e+03,5.611e+03,1.184e+05
83.3,8.269e+04,2.922e+03,4.763e+03,9.038e+04
84.9,6.073e+04,1.933e+03,4.421e+03,6.709e+04
86.4,4.443e+04,1.388e+03,4.599e+03,5.041e+04
87.9,3.316e+04,1.254e+03,4.540e+03,3.896e+04
89.5,2.509e+04,1.223e+03,3.852e+03,3.016e+04
91.0,1.941e+04,1.165e+03,3.162e+03,2.373e+04
92.6,1.551e+04,1.095e+03,2.526e+03,1.913e+04
94.1,1.386e+04,8.615e+02,1.696e+03,1.641e+04
95.7,1.566e+04,6.303e+02,1.130e+03,1.742e+04
97.2,2.188e+04,7.648e+02,9.570e+02,2.360e+04
98.7,3.160e+04,1.570e+03,1.147e+03,3.432e+04
100.3,4.199e+04,2.547e+03,1.329e+03,4.586e+04
101.8,4.927e+04,3.048e+03,1.259e+03,5.358e+04
103.4,5.654e+04,3.391e+03,1.147e+03,6.107e+04
104.9,6.073e+04,4.073e+03,1.296e+03,6.610e+04
106.5,6.722e+04,4.558e+03,1.308e+03,7.309e+04
108.0,7.831e+04,5.519e+03,1.408e+03,8.524e+04
109.5,8.940e+04,7.397e+03,1.672e+03,9.847e+04
111.1,1.002e+05,9.669e+03,2.076e+03,1.120e+05
112.6,1.105e+05,1.124e+04,2.305e+03,1.241e+05
114.2,1.208e+05,1.110e+04,2.183e+03,1.341e+05
115.7,1.250e+05,1.030e+04,2.099e+03,1.374e+05
117.3,1.143e+05,9.564e+03,2.148e+03,1.261e+05
118.8,9.609e+04,8.832e+03,2.240e+03,1.072e+05
120.3,9.584e+04,8.987e+03,2.674e+03,1.075e+05
121.9,1.117e+05,1.008e+04,3.508e+03,1.253e+05
123.4,1.325e+05,1.006e+04,3.803e+03,1.464e+05
125.0,1.221e+05,1.014e+04,4.017e+03,1.362e+05
126.5,1.057e+05,9.468e+03,3.895e+03,1.190e+05
128.1,1.034e+05,1.002e+04,4.309e+03,1.177e+05
129.6,1.028e+05,9.671e+03,4.233e+03,1.167e+05
131.1,1.064e+05,8.430e+03,3.585e+03,1.184e+05
132.7,6.469e+04,4.741e+03,2.042e+03,7.147e+04
134.2,1.104e+04,7.048e+02,4.473e+02,1.219e+04
135.8,5.122e+03,2.959e+02,2.631e+02,5.681e+03
137.3,4.616e+03,2.661e+02,2.375e+02,5.120e+03
138.9,4.245e+03,2.843e+02,2.619e+02,4.791e+03
140.4,3.852e+03,2.902e+02,2.531e+02,4.395e+03
141.9,3.366e+03,2.720e+02,2.187e+02,3.857e+03
143.5,2.898e+03,2.278e+02,2.009e+02,3.327e+03
145.0,2.692e+03,1.829e+02,1.743e+02,3.050e+03
146.6,2.910e+03,1.711e+02,1.570e+02,3.239e+03
148.1,3.451e+03,1.761e+02,1.672e+02,3.795e+03
149.7,4.098e+03,1.956e+02,1.904e+02,4.484e+03
151.2,3.858e+03,1.813e+02,1.959e+02,4.235e+03
152.7,3.783e+03,2.046e+02,2.068e+02,4.194e+03
154.3,3.650e+03,2.263e+02,1.930e+02,4.069e+03
155.8,2.886e+03,2.035e+02,1.788e+02,3.268e+03
157.4,2.512e+03,1.801e+02,1.603e+02,2.853e+03
158.9,2.395e+03,1.751e+02,1.582e+02,2.729e+03
160.5,1.974e+03,1.756e+02,1.681e+02,2.317e+03
162.0,1.557e+03,1.460e+02,1.497e+02,1.852e+03
163.5,1.323e+03,1.404e+02,1.650e+02,1.629e+03
165.1,1.101e+03,1.593e+02,1.699e+02,1.431e+03
166.6,9.517e+02,1.631e+02,1.715e+02,1.286e+03
168.2,8.551e+02,1.413e+02,1.592e+02,1.156e+03
169.7,7.497e+02,1.446e+02,1.637e+02,1.058e+03
171.3,1.236e+03,1.919e+02,1.627e+02,1.590e+03
172.8,1.666e+03,2.692e+02,1.684e+02,2.104e+03
174.3,2.467e+03,2.721e+02,1.688e+02,2.907e+03
175.9,4.567e+03,2.430e+02,1.702e+02,4.980e+03
177.4,6.269e+03,1.911e+02,1.434e+02,6.604e+03
179.0,6.969e+03,1.474e+02,1.196e+02,7.236e+03
180.5,7.119e+03,1.360e+02,1.095e+02,7.365e+03
182.1,6.374e+03,1.265e+02,1.098e+02,6.610e+03
183.6,5.007e+03,1.354e+02,1.153e+02,5.257e+03
185.1,3.811e+03,1.587e+02,1.305e+02,4.100e+03
186.7,3.372e+03,1.719e+02,1.405e+02,3.684e+03
188.2,4.367e+03,1.749e+02,1.212e+02,4.663e+03
189.8,6.149e+03,1.603e+02,1.142e+02,6.423e+03
191.3,7.771e+03,1.346e+02,1.163e+02,8.022e+03
192.9,9.092e+03,1.293e+02,1.147e+02,9.336e+03
194.4,1.017e+04,1.194e+02,1.198e+02,1.040e+04
195.9,1.222e+04,1.166e+02,1.247e+02,1.246e+04
197.5,1.313e+04,1.272e+02,1.300e+02,1.339e+04
199.0,1.286e+04,1.344e+02,1.367e+02,1.313e+04
